time,temp,m/z,abundance
0.0,0.0,15.0,13294.1
0.02,-0.01,16.0,129941.2
0.04,-0.02,17.0,1287705.9
0.06,-0.03,19.0,186823.5
0.08,-0.04,20.0,17352.9
0.12,-0.06,21.0,0.0
0.14,-0.07,22.0,2117.6
0.16,-0.08,23.0,764.7
0.18,-0.09,24.0,529.4
0.2,-0.1,25.0,941.2
0.22,-0.11,26.0,6294.1
0.24,-0.12,27.0,15705.9
0.26,-0.13,28.0,198529.4
0.28,-0.14,29.0,17823.5
0.3,-0.15,30.0,21176.5
0.32,-0.16,31.0,2941.2
0.34,-0.17,32.0,97882.4
0.36,-0.18,33.0,705.9
0.38,-0.19,34.0,3000.0
0.4,-0.2,35.0,294.1
0.42,-0.21,36.0,1235.3
0.44,-0.22,37.0,764.7
0.46,-0.23,38.0,1117.6
0.48,-0.24,39.0,3823.5
0.5,-0.25,40.0,2411.8
0.52,-0.26,41.0,8411.8
0.54,-0.27,42.0,5411.8
0.56,-0.28,43.0,7411.8
0.58,-0.29,44.0,565176.5
0.6,-0.3,45.0,9058.8
0.62,-0.31,46.0,3647.1
0.64,-0.32,47.0,529.4
0.66,-0.33,48.0,2470.6
0.68,-0.34,49.0,0.0
0.7,-0.35,50.0,1176.5
0.72,-0.36,51.0,1941.2
0.74,-0.37,52.0,588.2
0.76,-0.38,53.0,882.4
0.78,-0.39,54.0,411.8
0.8,-0.4,55.0,2294.1
0.82,-0.41,56.0,1411.8
0.84,-0.42,57.0,1411.8
0.86,-0.43,58.0,1000.0
0.88,-0.44,59.0,117.6
0.9,-0.45,60.0,411.8
0.92,-0.46,61.0,58.8
0.94,-0.47,62.0,117.6
0.96,-0.48,63.0,294.1
0.98,-0.49,64.0,5823.5
1.0,-0.5,65.0,294.1
1.02,-0.472,66.0,647.1
1.04,-0.444,67.0,705.9
1.06,-0.416,68.0,470.6
1.08,-0.388,69.0,2882.4
1.1,-0.36,70.0,411.8
1.12,-0.332,71.0,235.3
1.14,-0.304,72.0,235.3
1.16,-0.276,73.0,117.6
1.18,-0.248,74.0,117.6
1.2,-0.22,75.0,411.8
1.22,-0.192,76.0,0.0
1.24,-0.164,77.0,529.4
1.26,-0.136,78.0,705.9
1.28,-0.108,79.0,470.6
1.3,-0.08,80.0,58.8
1.32,-0.052,81.0,588.2
1.34,-0.024,82.0,823.5
1.36,0.004,83.0,529.4
1.38,0.032,84.0,1176.5
1.4,0.06,85.0,58.8
1.42,0.088,86.0,294.1
1.44,0.116,87.0,0.0
1.46,0.144,88.0,117.6
1.48,0.172,89.0,0.0
1.5,0.2,90.0,58.8
1.52,0.228,91.0,941.2
1.54,0.256,92.0,176.5
1.56,0.284,93.0,117.6
1.58,0.312,94.0,176.5
1.6,0.34,95.0,176.5
1.62,0.368,96.0,235.3
1.64,0.396,97.0,470.6
1.66,0.424,98.0,176.5
1.68,0.452,99.0,117.6
1.7,0.48,100.0,176.5
1.72,0.508,101.0,294.1
1.74,0.536,102.0,0.0
1.76,0.564,103.0,58.8
1.78,0.592,104.0,58.8
1.8,0.62,105.0,176.5
1.82,0.648,106.0,352.9
1.84,0.676,107.0,58.8
1.86,0.704,108.0,58.8
1.88,0.732,109.0,0.0
1.9,0.76,110.0,235.3
1.92,0.788,111.0,0.0
1.94,0.816,112.0,176.5
1.96,0.844,113.0,58.8
1.98,0.872,114.0,0.0
2.0,0.9,115.0,176.5
2.02,0.933,116.0,0.0
2.04,0.967,117.0,58.8
2.06,1.0,118.0,0.0
2.08,1.033,119.0,823.5
2.1,1.067,120.0,58.8
2.12,1.1,121.0,58.8
2.14,1.275,122.0,117.6
2.16,1.45,123.0,176.5
2.18,1.625,124.0,58.8
2.2,1.8,125.0,58.8
2.22,1.975,126.0,0.0
2.24,2.15,127.0,0.0
2.26,2.325,128.0,235.3
2.28,2.5,129.0,470.6
2.3,2.675,130.0,58.8
2.32,2.85,131.0,529.4
2.34,3.025,132.0,588.2
2.36,3.2,133.0,0.0
2.38,3.375,134.0,117.6
2.4,3.55,135.0,0.0
2.42,3.725,136.0,176.5
2.44,3.9,137.0,58.8
2.46,4.075,138.0,0.0
2.48,4.25,139.0,0.0
2.5,4.425,140.0,58.8
2.52,4.6,141.0,176.5
2.54,4.775,142.0,0.0
2.56,4.95,143.0,0.0
2.58,5.125,144.0,0.0
2.6,5.3,145.0,0.0
2.62,5.475,146.0,0.0
2.64,5.65,147.0,411.8
2.66,5.825,148.0,0.0
2.68,6.0,149.0,0.0
2.7,6.175,150.0,235.3
2.74,6.525,151.1,117.6
2.76,6.7,151.0,0.0
2.78,6.875,152.0,0.0
2.8,7.05,153.0,0.0
2.82,7.225,154.0,0.0
2.84,7.4,155.0,0.0
2.86,7.575,184.0,0.0
2.88,7.75,189.0,0.0
2.9,7.925,192.0,0.0
2.92,8.1,207.0,0.0
2.94,8.275,221.0,0.0
2.96,8.45,233.0,0.0
2.98,8.625,281.0,0.0
3.02,8.918,1.9,130529.4
3.04,9.036,2.0,133235.3
3.06,9.154,3.0,0.0
3.08,9.272,12.0,10529.4
3.1,9.39,13.0,1294.1
3.12,9.508,14.0,5647.1
3.14,9.626,15.0,10058.8
3.16,9.744,16.0,136529.4
3.18,9.862,17.0,1284294.1
3.2,9.98,19.0,188941.2
3.22,10.098,20.0,17588.2
3.26,10.334,21.0,0.0
3.28,10.452,22.0,1647.1
3.3,10.57,23.0,705.9
3.32,10.688,24.0,352.9
3.34,10.806,25.0,647.1
3.36,10.924,26.0,6470.6
3.38,11.042,27.0,15764.7
3.4,11.16,28.0,203058.8
3.42,11.278,29.0,15705.9
3.44,11.396,30.0,23529.4
3.46,11.514,31.0,4117.6
3.48,11.632,32.0,104176.5
3.5,11.75,33.0,941.2
3.52,11.868,34.0,2176.5
3.54,11.986,35.0,352.9
3.56,12.104,36.0,1470.6
3.58,12.222,37.0,647.1
3.6,12.34,38.0,1764.7
3.62,12.458,39.0,4058.8
3.64,12.576,40.0,2941.2
3.66,12.694,41.0,7823.5
3.68,12.812,42.0,5352.9
3.7,12.93,43.0,6823.5
3.72,13.048,44.0,553117.6
3.74,13.166,45.0,8235.3
3.76,13.284,46.0,2823.5
3.78,13.402,47.0,529.4
3.8,13.52,48.0,1705.9
3.82,13.638,49.0,176.5
3.84,13.756,50.0,1000.0
3.86,13.874,51.0,2117.6
3.88,13.992,52.0,411.8
3.9,14.11,53.0,647.1
3.92,14.228,54.0,941.2
3.94,14.346,55.0,2470.6
3.96,14.464,56.0,1941.2
3.98,14.582,57.0,1235.3
4.0,14.7,58.0,1117.6
4.02,14.796,59.0,58.8
4.04,14.892,60.0,411.8
4.06,14.988,61.0,58.8
4.08,15.084,62.0,58.8
4.1,15.18,63.0,235.3
4.12,15.276,64.0,7000.0
4.14,15.372,65.0,352.9
4.16,15.468,66.0,352.9
4.18,15.564,67.0,1294.1
4.2,15.66,68.0,470.6
4.22,15.756,69.0,2882.4
4.24,15.852,70.0,764.7
4.26,15.948,71.0,470.6
4.28,16.044,72.0,117.6
4.3,16.14,73.0,58.8
4.32,16.236,74.0,58.8
4.34,16.332,75.0,0.0
4.36,16.428,76.0,117.6
4.38,16.524,77.0,470.6
4.4,16.62,78.0,1176.5
4.42,16.716,79.0,470.6
4.44,16.812,80.0,117.6
4.46,16.908,81.0,294.1
4.48,17.004,82.0,764.7
4.5,17.1,83.0,529.4
4.52,17.196,84.0,588.2
4.54,17.292,85.0,352.9
4.56,17.388,86.0,176.5
4.58,17.484,87.0,0.0
4.6,17.58,88.0,0.0
4.62,17.676,89.0,117.6
4.64,17.772,90.0,0.0
4.66,17.868,91.0,823.5
4.68,17.964,92.0,176.5
4.7,18.06,93.0,58.8
4.72,18.156,94.0,294.1
4.74,18.252,95.0,176.5
4.76,18.348,96.0,117.6
4.78,18.444,97.0,882.4
4.8,18.54,98.0,0.0
4.82,18.636,99.0,176.5
4.84,18.732,100.0,117.6
4.86,18.828,101.0,294.1
4.88,18.924,102.0,0.0
4.9,19.02,103.0,0.0
4.92,19.116,104.0,0.0
4.94,19.212,105.0,294.1
4.96,19.308,106.0,352.9
4.98,19.404,107.0,58.8
5.0,19.5,108.0,117.6
5.02,19.547,109.0,58.8
5.04,19.594,110.0,117.6
5.06,19.642,111.0,176.5
5.08,19.689,112.0,176.5
5.1,19.736,113.0,58.8
5.12,19.783,114.0,0.0
5.14,19.831,115.0,117.6
5.16,19.878,116.0,58.8
5.18,19.925,117.0,0.0
5.2,19.972,118.0,0.0
5.22,20.019,119.0,294.1
5.24,20.067,120.0,0.0
5.26,20.114,121.0,58.8
5.28,20.161,122.0,0.0
5.3,20.208,123.0,58.8
5.32,20.256,124.0,0.0
5.34,20.303,125.0,0.0
5.36,20.35,126.0,0.0
5.38,20.397,127.0,58.8
5.4,20.444,128.0,176.5
5.42,20.492,129.0,647.1
5.44,20.539,130.0,0.0
5.46,20.586,131.0,705.9
5.48,20.633,132.0,588.2
5.5,20.681,133.0,117.6
5.52,20.728,134.0,117.6
5.54,20.775,135.0,0.0
5.56,20.822,136.0,58.8
5.58,20.869,137.0,0.0
5.6,20.917,138.0,0.0
5.62,20.964,139.0,0.0
5.64,21.011,140.0,58.8
5.66,21.058,141.0,58.8
5.68,21.106,142.0,0.0
5.7,21.153,143.0,0.0
5.72,21.2,144.0,0.0
5.74,21.221,145.0,117.6
5.76,21.243,146.0,0.0
5.78,21.264,147.0,294.1
5.8,21.286,148.0,58.8
5.82,21.307,149.0,58.8
5.84,21.329,150.0,117.6
5.88,21.371,151.1,117.6
5.9,21.393,151.0,0.0
5.92,21.414,152.0,0.0
5.94,21.436,153.0,0.0
5.96,21.457,154.0,0.0
5.98,21.479,155.0,0.0
6.0,21.5,184.0,0.0
6.02,21.528,189.0,0.0
6.04,21.556,192.0,0.0
6.06,21.584,207.0,0.0
6.08,21.612,221.0,0.0
6.1,21.64,233.0,0.0
6.12,21.668,281.0,0.0
6.16,21.724,1.9,127000.0
6.18,21.752,2.0,132764.7
6.2,21.78,3.0,58.8
6.22,21.808,12.0,10058.8
6.24,21.836,13.0,1058.8
6.26,21.864,14.0,6000.0
6.28,21.892,15.0,10588.2
6.3,21.92,16.0,129117.6
6.32,21.948,17.0,1267294.1
6.34,21.976,19.0,186352.9
6.36,22.004,20.0,18588.2
6.4,22.06,21.0,0.0
6.42,22.088,22.0,2352.9
6.44,22.116,23.0,117.6
6.46,22.144,24.0,352.9
6.48,22.172,25.0,823.5
6.5,22.2,26.0,6117.6
6.52,22.228,27.0,15411.8
6.54,22.256,28.0,208647.1
6.56,22.284,29.0,18647.1
6.58,22.312,30.0,22764.7
6.6,22.34,31.0,4294.1
6.62,22.368,32.0,96647.1
6.64,22.396,33.0,882.4
6.66,22.424,34.0,3000.0
6.68,22.452,35.0,117.6
6.7,22.48,36.0,1294.1
6.72,22.508,37.0,470.6
6.74,22.536,38.0,1529.4
6.76,22.564,39.0,5235.3
6.78,22.592,40.0,3176.5
6.8,22.62,41.0,8294.1
6.82,22.648,42.0,5294.1
6.84,22.676,43.0,6705.9
6.86,22.704,44.0,557352.9
6.88,22.732,45.0,8470.6
6.9,22.76,46.0,3235.3
6.92,22.788,47.0,470.6
6.94,22.816,48.0,2176.5
6.96,22.844,49.0,235.3
6.98,22.872,50.0,1529.4
7.0,22.9,51.0,1352.9
7.02,22.922,52.0,411.8
7.04,22.944,53.0,1000.0
7.06,22.966,54.0,411.8
7.08,22.988,55.0,2470.6
7.1,23.01,56.0,1235.3
7.12,23.032,57.0,1294.1
7.14,23.054,58.0,882.4
7.16,23.076,59.0,176.5
7.18,23.098,60.0,588.2
7.2,23.12,61.0,58.8
7.22,23.142,62.0,235.3
7.24,23.164,63.0,352.9
7.26,23.186,64.0,7470.6
7.28,23.208,65.0,411.8
7.3,23.23,66.0,588.2
7.32,23.252,67.0,1000.0
7.34,23.274,68.0,411.8
7.36,23.296,69.0,3764.7
7.38,23.318,70.0,764.7
7.4,23.34,71.0,235.3
7.42,23.362,72.0,352.9
7.44,23.384,73.0,176.5
7.46,23.406,74.0,117.6
7.48,23.428,75.0,117.6
7.5,23.45,76.0,0.0
7.52,23.472,77.0,823.5
7.54,23.494,78.0,1117.6
7.56,23.516,79.0,764.7
7.58,23.538,80.0,117.6
7.6,23.56,81.0,294.1
7.62,23.582,82.0,764.7
7.64,23.604,83.0,1117.6
7.66,23.626,84.0,647.1
7.68,23.648,85.0,58.8
7.7,23.67,86.0,117.6
7.72,23.692,87.0,58.8
7.74,23.714,88.0,0.0
7.76,23.736,89.0,58.8
7.78,23.758,90.0,58.8
7.8,23.78,91.0,764.7
7.82,23.802,92.0,235.3
7.84,23.824,93.0,176.5
7.86,23.846,94.0,117.6
7.88,23.868,95.0,352.9
7.9,23.89,96.0,58.8
7.92,23.912,97.0,764.7
7.94,23.934,98.0,235.3
7.96,23.956,99.0,58.8
7.98,23.978,100.0,294.1
8.0,24.0,101.0,294.1
8.02,24.019,102.0,0.0
8.04,24.037,103.0,0.0
8.06,24.056,104.0,0.0
8.08,24.074,105.0,294.1
8.1,24.093,106.0,58.8
8.12,24.112,107.0,117.6
8.14,24.13,108.0,117.6
8.16,24.149,109.0,294.1
8.18,24.167,110.0,117.6
8.2,24.186,111.0,0.0
8.22,24.205,112.0,176.5
8.24,24.223,113.0,58.8
8.26,24.242,114.0,0.0
8.28,24.26,115.0,0.0
8.3,24.279,116.0,0.0
8.32,24.298,117.0,0.0
8.34,24.316,118.0,58.8
8.36,24.335,119.0,294.1
8.38,24.353,120.0,0.0
8.4,24.372,121.0,0.0
8.42,24.391,122.0,0.0
8.44,24.409,123.0,0.0
8.46,24.428,124.0,58.8
8.48,24.447,125.0,117.6
8.5,24.465,126.0,0.0
8.52,24.484,127.0,0.0
8.54,24.502,128.0,294.1
8.56,24.521,129.0,941.2
8.58,24.54,130.0,117.6
8.6,24.558,131.0,588.2
8.62,24.577,132.0,588.2
8.64,24.595,133.0,58.8
8.66,24.614,134.0,352.9
8.68,24.633,135.0,117.6
8.7,24.651,136.0,352.9
8.72,24.67,137.0,58.8
8.74,24.688,138.0,0.0
8.76,24.707,139.0,0.0
8.78,24.726,140.0,0.0
8.8,24.744,141.0,0.0
8.82,24.763,142.0,0.0
8.84,24.781,143.0,0.0
8.86,24.8,144.0,0.0
8.88,24.857,145.0,0.0
8.9,24.914,146.0,0.0
8.92,24.971,147.0,352.9
8.94,25.029,148.0,58.8
8.96,25.086,149.0,58.8
8.98,25.143,150.0,294.1
9.02,25.204,151.1,176.5
9.04,25.208,151.0,0.0
9.06,25.212,152.0,0.0
9.08,25.216,153.0,0.0
9.1,25.22,154.0,0.0
9.12,25.224,155.0,0.0
9.14,25.228,184.0,0.0
9.16,25.232,189.0,0.0
9.18,25.236,192.0,0.0
9.2,25.24,207.0,0.0
9.22,25.244,221.0,0.0
9.24,25.248,233.0,0.0
9.26,25.252,281.0,0.0
9.3,25.26,1.9,130470.6
9.32,25.264,2.0,130588.2
9.34,25.268,3.0,0.0
9.36,25.272,12.0,11470.6
9.38,25.276,13.0,647.1
9.4,25.28,14.0,5764.7
9.42,25.284,15.0,12352.9
9.44,25.288,16.0,136588.2
9.46,25.292,17.0,1273352.9
9.48,25.296,19.0,184823.5
9.5,25.3,20.0,15117.6
9.54,25.308,21.0,117.6
9.56,25.312,22.0,2470.6
9.58,25.316,23.0,647.1
9.6,25.32,24.0,470.6
9.62,25.324,25.0,1117.6
9.64,25.328,26.0,6058.8
9.66,25.332,27.0,16000.0
9.68,25.336,28.0,208941.2
9.7,25.34,29.0,16411.8
9.72,25.344,30.0,22588.2
9.74,25.348,31.0,3058.8
9.76,25.352,32.0,97823.5
9.78,25.356,33.0,882.4
9.8,25.36,34.0,2647.1
9.82,25.364,35.0,411.8
9.84,25.368,36.0,1235.3
9.86,25.372,37.0,470.6
9.88,25.376,38.0,1176.5
9.9,25.38,39.0,5705.9
9.92,25.384,40.0,2470.6
9.94,25.388,41.0,8294.1
9.96,25.392,42.0,4882.4
9.98,25.396,43.0,6823.5
10.0,25.4,44.0,574647.1
10.02,25.406,45.0,9176.5
10.04,25.412,46.0,2941.2
10.06,25.418,47.0,411.8
10.08,25.424,48.0,2764.7
10.1,25.43,49.0,58.8
10.12,25.436,50.0,1117.6
10.14,25.442,51.0,1470.6
10.16,25.448,52.0,588.2
10.18,25.454,53.0,823.5
10.2,25.46,54.0,411.8
10.22,25.466,55.0,2470.6
10.24,25.472,56.0,2294.1
10.26,25.478,57.0,1588.2
10.28,25.484,58.0,1058.8
10.3,25.49,59.0,235.3
10.32,25.496,60.0,411.8
10.34,25.502,61.0,58.8
10.36,25.508,62.0,58.8
10.38,25.514,63.0,117.6
10.4,25.52,64.0,5294.1
10.42,25.526,65.0,941.2
10.44,25.532,66.0,764.7
10.46,25.538,67.0,529.4
10.48,25.544,68.0,588.2
10.5,25.55,69.0,2352.9
10.52,25.556,70.0,352.9
10.54,25.562,71.0,176.5
10.56,25.568,72.0,352.9
10.58,25.574,73.0,117.6
10.6,25.58,74.0,235.3
10.62,25.586,75.0,352.9
10.64,25.592,76.0,0.0
10.66,25.598,77.0,529.4
10.68,25.604,78.0,1352.9
10.7,25.61,79.0,588.2
10.72,25.616,80.0,176.5
10.74,25.622,81.0,529.4
10.76,25.628,82.0,411.8
10.78,25.634,83.0,235.3
10.8,25.64,84.0,882.4
10.82,25.646,85.0,411.8
10.84,25.652,86.0,58.8
10.86,25.658,87.0,0.0
10.88,25.664,88.0,0.0
10.9,25.67,89.0,0.0
10.92,25.676,90.0,0.0
10.94,25.682,91.0,823.5
10.96,25.688,92.0,176.5
10.98,25.694,93.0,235.3
11.0,25.7,94.0,58.8
11.02,25.718,95.0,235.3
11.04,25.736,96.0,58.8
11.06,25.754,97.0,647.1
11.08,25.772,98.0,58.8
11.1,25.79,99.0,0.0
11.12,25.808,100.0,235.3
11.14,25.826,101.0,294.1
11.16,25.844,102.0,58.8
11.18,25.862,103.0,58.8
11.2,25.88,104.0,0.0
11.22,25.898,105.0,352.9
11.24,25.916,106.0,294.1
11.26,25.934,107.0,235.3
11.28,25.952,108.0,117.6
11.3,25.97,109.0,0.0
11.32,25.988,110.0,58.8
11.34,26.006,111.0,58.8
11.36,26.024,112.0,117.6
11.38,26.042,113.0,0.0
11.4,26.06,114.0,58.8
11.42,26.078,115.0,58.8
11.44,26.096,116.0,0.0
11.46,26.114,117.0,58.8
11.48,26.132,118.0,117.6
11.5,26.15,119.0,529.4
11.52,26.168,120.0,0.0
11.54,26.186,121.0,0.0
11.56,26.204,122.0,58.8
11.58,26.222,123.0,0.0
11.6,26.24,124.0,58.8
11.62,26.258,125.0,0.0
11.64,26.276,126.0,0.0
11.66,26.294,127.0,0.0
11.68,26.312,128.0,0.0
11.7,26.33,129.0,647.1
11.72,26.348,130.0,117.6
11.74,26.366,131.0,647.1
11.76,26.384,132.0,764.7
11.78,26.402,133.0,58.8
11.8,26.42,134.0,176.5
11.82,26.438,135.0,58.8
11.84,26.456,136.0,58.8
11.86,26.474,137.0,0.0
11.88,26.492,138.0,58.8
11.9,26.51,139.0,0.0
11.92,26.528,140.0,0.0
11.94,26.546,141.0,0.0
11.96,26.564,142.0,0.0
11.98,26.582,143.0,0.0
12.0,26.6,144.0,0.0
12.02,26.6,145.0,0.0
12.04,26.6,146.0,58.8
12.06,26.6,147.0,176.5
12.08,26.6,148.0,0.0
12.1,26.6,149.0,117.6
12.12,26.6,150.0,58.8
12.16,26.6,151.1,411.8
12.18,26.6,151.0,0.0
12.2,26.6,152.0,0.0
12.22,26.6,153.0,0.0
12.24,26.6,154.0,0.0
12.26,26.6,155.0,0.0
12.28,26.6,184.0,0.0
12.3,26.6,189.0,0.0
12.32,26.6,192.0,0.0
12.34,26.6,207.0,0.0
12.36,26.6,221.0,0.0
12.38,26.6,233.0,0.0
12.4,26.6,281.0,0.0
12.44,26.6,1.9,132352.9
12.46,26.6,2.0,130647.1
12.48,26.6,3.0,58.8
12.5,26.604,12.0,10117.6
12.52,26.608,13.0,1411.8
12.54,26.612,14.0,6117.6
12.56,26.615,15.0,11588.2
12.58,26.619,16.0,134764.7
12.6,26.623,17.0,1273764.7
12.62,26.627,19.0,185176.5
12.64,26.631,20.0,14352.9
12.68,26.638,21.0,0.0
12.7,26.642,22.0,2705.9
12.72,26.646,23.0,823.5
12.74,26.65,24.0,294.1
12.76,26.654,25.0,882.4
12.78,26.658,26.0,6000.0
12.8,26.662,27.0,16529.4
12.82,26.665,28.0,208470.6
12.84,26.669,29.0,16352.9
12.86,26.673,30.0,19647.1
12.88,26.677,31.0,3647.1
12.9,26.681,32.0,96117.6
12.92,26.685,33.0,1000.0
12.94,26.688,34.0,2823.5
12.96,26.692,35.0,294.1
12.98,26.696,36.0,1117.6
13.0,26.7,37.0,411.8
13.02,26.706,38.0,1176.5
13.04,26.712,39.0,4176.5
13.06,26.718,40.0,2411.8
13.08,26.724,41.0,7117.6
13.1,26.73,42.0,4882.4
13.12,26.736,43.0,7647.1
13.14,26.742,44.0,566352.9
13.16,26.748,45.0,6823.5
13.18,26.754,46.0,3529.4
13.2,26.76,47.0,647.1
13.22,26.766,48.0,2411.8
13.24,26.772,49.0,0.0
13.26,26.778,50.0,1058.8
13.28,26.784,51.0,2294.1
13.3,26.79,52.0,529.4
13.32,26.796,53.0,882.4
13.34,26.802,54.0,529.4
13.36,26.808,55.0,2647.1
13.38,26.814,56.0,2294.1
13.4,26.82,57.0,1000.0
13.42,26.826,58.0,1000.0
13.44,26.832,59.0,117.6
13.46,26.838,60.0,588.2
13.48,26.844,61.0,58.8
13.5,26.85,62.0,58.8
13.52,26.856,63.0,529.4
13.54,26.862,64.0,6411.8
13.56,26.868,65.0,176.5
13.58,26.874,66.0,529.4
13.6,26.88,67.0,1235.3
13.62,26.886,68.0,529.4
13.64,26.892,69.0,2823.5
13.66,26.898,70.0,1000.0
13.68,26.904,71.0,411.8
13.7,26.91,72.0,0.0
13.72,26.916,73.0,117.6
13.74,26.922,74.0,0.0
13.76,26.928,75.0,235.3
13.78,26.934,76.0,0.0
13.8,26.94,77.0,470.6
13.82,26.946,78.0,1235.3
13.84,26.952,79.0,529.4
13.86,26.958,80.0,176.5
13.88,26.964,81.0,588.2
13.9,26.97,82.0,411.8
13.92,26.976,83.0,529.4
13.94,26.982,84.0,1176.5
13.96,26.988,85.0,117.6
13.98,26.994,86.0,235.3
14.0,27.0,87.0,0.0
14.02,27.026,88.0,117.6
14.04,27.052,89.0,58.8
14.06,27.078,90.0,0.0
14.08,27.104,91.0,823.5
14.1,27.13,92.0,411.8
14.12,27.156,93.0,352.9
14.14,27.182,94.0,235.3
14.16,27.208,95.0,176.5
14.18,27.234,96.0,294.1
14.2,27.26,97.0,352.9
14.22,27.286,98.0,176.5
14.24,27.312,99.0,117.6
14.26,27.338,100.0,470.6
14.28,27.364,101.0,588.2
14.3,27.39,102.0,0.0
14.32,27.416,103.0,0.0
14.34,27.442,104.0,0.0
14.36,27.468,105.0,176.5
14.38,27.494,106.0,58.8
14.4,27.52,107.0,58.8
14.42,27.546,108.0,58.8
14.44,27.572,109.0,117.6
14.46,27.598,110.0,58.8
14.48,27.624,111.0,0.0
14.5,27.65,112.0,176.5
14.52,27.676,113.0,0.0
14.54,27.702,114.0,0.0
14.56,27.728,115.0,58.8
14.58,27.754,116.0,58.8
14.6,27.78,117.0,235.3
14.62,27.806,118.0,58.8
14.64,27.832,119.0,588.2
14.66,27.858,120.0,58.8
14.68,27.884,121.0,0.0
14.7,27.91,122.0,176.5
14.72,27.936,123.0,58.8
14.74,27.962,124.0,0.0
14.76,27.988,125.0,0.0
14.78,28.014,126.0,0.0
14.8,28.04,127.0,0.0
14.82,28.066,128.0,58.8
14.84,28.092,129.0,1000.0
14.86,28.118,130.0,117.6
14.88,28.144,131.0,1176.5
14.9,28.17,132.0,764.7
14.92,28.196,133.0,0.0
14.94,28.222,134.0,294.1
14.96,28.248,135.0,58.8
14.98,28.274,136.0,352.9
15.0,28.3,137.0,0.0
15.02,28.298,138.0,0.0
15.04,28.296,139.0,0.0
15.06,28.294,140.0,0.0
15.08,28.292,141.0,0.0
15.1,28.29,142.0,58.8
15.12,28.288,143.0,0.0
15.14,28.286,144.0,0.0
15.16,28.284,145.0,58.8
15.18,28.282,146.0,0.0
15.2,28.28,147.0,529.4
15.22,28.278,148.0,0.0
15.24,28.276,149.0,0.0
15.26,28.274,150.0,117.6
15.3,28.27,151.1,0.0
15.32,28.268,151.0,0.0
15.34,28.266,152.0,0.0
15.36,28.264,153.0,0.0
15.38,28.262,154.0,0.0
15.4,28.26,155.0,0.0
15.42,28.258,184.0,0.0
15.44,28.256,189.0,0.0
15.46,28.254,192.0,0.0
15.48,28.252,207.0,0.0
15.5,28.25,221.0,0.0
15.52,28.248,233.0,0.0
15.54,28.246,281.0,0.0
15.58,28.242,1.9,128941.2
15.6,28.24,2.0,132764.7
15.62,28.238,3.0,0.0
15.64,28.236,12.0,10235.3
15.66,28.234,13.0,1294.1
15.68,28.232,14.0,4529.4
15.7,28.23,15.0,12588.2
15.72,28.228,16.0,134058.8
15.74,28.226,17.0,1286176.5
15.76,28.224,19.0,192058.8
15.78,28.222,20.0,14294.1
15.82,28.218,21.0,0.0
15.84,28.216,22.0,1588.2
15.86,28.214,23.0,411.8
15.88,28.212,24.0,117.6
15.9,28.21,25.0,823.5
15.92,28.208,26.0,6352.9
15.94,28.206,27.0,16000.0
15.96,28.204,28.0,204000.0
15.98,28.202,29.0,18176.5
16.0,28.2,30.0,21823.5
16.02,28.26,31.0,3411.8
16.04,28.32,32.0,99411.8
16.06,28.38,33.0,941.2
16.08,28.44,34.0,2647.1
16.1,28.5,35.0,529.4
16.12,28.511,36.0,823.5
16.14,28.522,37.0,764.7
16.16,28.533,38.0,1000.0
16.18,28.544,39.0,5000.0
16.2,28.556,40.0,3588.2
16.22,28.567,41.0,7823.5
16.24,28.578,42.0,6000.0
16.26,28.589,43.0,7294.1
16.28,28.6,44.0,559235.3
16.3,28.611,45.0,8117.6
16.32,28.622,46.0,3294.1
16.34,28.633,47.0,294.1
16.36,28.644,48.0,3294.1
16.38,28.656,49.0,235.3
16.4,28.667,50.0,1000.0
16.42,28.678,51.0,1588.2
16.44,28.689,52.0,1000.0
16.46,28.7,53.0,764.7
16.48,28.711,54.0,470.6
16.5,28.722,55.0,2117.6
16.52,28.733,56.0,1882.4
16.54,28.744,57.0,1058.8
16.56,28.756,58.0,1411.8
16.58,28.767,59.0,235.3
16.6,28.778,60.0,352.9
16.62,28.789,61.0,58.8
16.64,28.8,62.0,176.5
16.66,28.811,63.0,352.9
16.68,28.822,64.0,5941.2
16.7,28.833,65.0,117.6
16.72,28.844,66.0,764.7
16.74,28.856,67.0,647.1
16.76,28.867,68.0,411.8
16.78,28.878,69.0,3588.2
16.8,28.889,70.0,705.9
16.82,28.9,71.0,411.8
16.84,28.911,72.0,176.5
16.86,28.922,73.0,117.6
16.88,28.933,74.0,58.8
16.9,28.944,75.0,0.0
16.92,28.956,76.0,235.3
16.94,28.967,77.0,588.2
16.96,28.978,78.0,764.7
16.98,28.989,79.0,588.2
17.0,29.0,80.0,58.8
17.02,29.01,81.0,882.4
17.04,29.02,82.0,411.8
17.06,29.03,83.0,588.2
17.08,29.04,84.0,764.7
17.1,29.05,85.0,176.5
17.12,29.06,86.0,294.1
17.14,29.07,87.0,0.0
17.16,29.08,88.0,0.0
17.18,29.09,89.0,58.8
17.2,29.1,90.0,58.8
17.22,29.11,91.0,882.4
17.24,29.12,92.0,117.6
17.26,29.13,93.0,117.6
17.28,29.14,94.0,235.3
17.3,29.15,95.0,117.6
17.32,29.16,96.0,352.9
17.34,29.17,97.0,352.9
17.36,29.18,98.0,117.6
17.38,29.19,99.0,235.3
17.4,29.2,100.0,352.9
17.42,29.21,101.0,470.6
17.44,29.22,102.0,0.0
17.46,29.23,103.0,176.5
17.48,29.24,104.0,58.8
17.5,29.25,105.0,235.3
17.52,29.26,106.0,176.5
17.54,29.27,107.0,117.6
17.56,29.28,108.0,0.0
17.58,29.29,109.0,0.0
17.6,29.3,110.0,0.0
17.62,29.31,111.0,117.6
17.64,29.32,112.0,117.6
17.66,29.33,113.0,176.5
17.68,29.34,114.0,58.8
